,x,y,mass,size,ecc,signal,raw_mass,ep,frame,particle
0,33.051216714717526,269.98596567881765,3552.246795371975,3.310028222981666,0.03551753399741669,61.64671910763415,10103.0,0.0,1,0.0
1,36.191324060909764,237.80699437300817,3307.3338336274287,3.282040129251446,0.025294044511161438,59.267584397979654,7563.0,0.0,2,0.0
2,37.07141543787487,210.73562221010394,3826.500573544296,3.296802785985833,0.008212325681981507,65.5324712890974,8999.0,0.0,3,0.0
3,36.12431720292189,192.4524556868069,3350.1215341949473,3.232211877860258,0.0185807503156922,60.638201133717914,8086.0,0.0,4,0.0
4,35.23503354539152,162.69263605772142,3196.5094491014074,3.2927892439692075,0.027268353396157165,55.39877728078696,8164.0,0.0,5,0.0
5,36.98873933575943,131.8302755757524,3815.2381226309585,3.30732774201785,0.014622569270788545,65.61360453690065,8857.0,0.0,6,0.0
6,36.09095225229009,105.6839388995171,4572.70378192831,3.255416869898083,0.04104425156067348,82.30967185119557,11187.0,0.0,7,0.0
7,43.252247954212315,81.21201800777581,3820.7057941278986,3.2402556746495623,0.11290821823087024,71.55305143580786,8797.0,0.0,8,0.0
8,74.89118966005968,82.58742561159939,3403.490127580855,3.226072314607257,0.10398176518070508,61.58992171260976,7329.0,0.0,9,0.0
9,106.33308366864148,85.97468999544536,3687.310860250066,3.2934844962646292,0.0764226456937777,63.28638425220614,7999.0,0.0,10,0.0
10,145.0542573739426,80.22920205880875,3518.5156535657047,3.2964701660962996,0.08928622541020292,60.31372510924803,7013.0,0.0,11,0.0
11,173.23441458374396,88.01094864838467,3682.8991411240377,3.2856127072037564,0.08375775814447382,65.1665799769937,8717.0,0.0,12,0.0
12,218.88958002280893,83.89938931257804,4882.1454017073265,3.3518541687304473,0.05014272251294098,79.69603844131854,11329.0,0.0,13,0.0
13,260.00591215001293,81.80137151720618,3837.4551784796568,3.281143072875976,0.12529108407643907,68.42234816361085,8617.0,0.0,14,0.0
14,303.74486036006914,86.74194185413329,4905.57486659119,3.334531319694824,0.07926499213430045,79.27319099848341,11561.0,0.0,15,0.0
15,357.9365256286801,85.21645080805433,3851.972768159937,3.29887308322511,0.12049330777872817,68.61666853743903,9734.0,0.0,16,0.0
16,408.0127176972116,81.87880738859747,4206.191852889264,3.2896155067720185,0.1154634761731585,75.38456453235318,9394.0,0.0,17,0.0
17,436.26317059953055,88.71745796622886,4473.094293728619,3.346361879545869,0.028186598327941917,71.938033361792,10028.0,0.0,18,0.0
18,480.9024801476836,83.30577540284948,3680.8562808438983,3.307101508111277,0.11378909052246036,61.83065668609173,8976.0,0.0,19,0.0
19,507.16496779052306,91.8386823805686,4012.1792809403337,3.340975156850349,0.08634576589771843,67.56396485659928,9894.0,0.0,20,0.0
20,567.7424777845353,88.2990571430829,3955.6443289943963,3.2616729411038468,0.06526106284358109,71.97092112989185,10292.0,0.0,21,0.0
21,640.0114975245923,88.83332430625923,5855.6528939237205,3.3345511350197805,0.0429358454382128,97.60697398029473,13530.0,0.0,23,0.0
22,694.1326029523831,85.13194803357497,4211.989654676542,3.313614398992858,0.12065119633768827,72.6205112875266,9604.0,0.0,24,0.0
23,727.3608805753225,86.27663952444287,3380.230538693304,3.3282864622666946,0.04088304121628804,54.721027646981234,8239.0,0.0,25,0.0
24,773.2585765137424,90.89222925994767,5445.5997996118085,3.3042133008167864,0.019962738500349016,92.39656323780765,11900.0,0.0,26,0.0
25,773.0625082838712,130.42599869941523,3685.5943196318444,3.2510660818442543,0.06420643786324925,67.26337579966865,10203.0,0.0,27,0.0
26,35.0205759626693,283.22400103689813,3282.9785788924037,3.221578045284648,0.14792432183211016,63.973010394714684,8831.0,0.0,1,1.0
27,35.96572671497396,296.9633065896127,3756.653041841172,3.2661721110345177,0.0751673550814449,69.3987954061813,8925.0,0.0,2,1.0
28,35.17110391075878,325.1471797305178,8087.8984565526025,3.2436761375160956,0.0398948110772813,151.9161834429076,18714.0,0.0,3,1.0
29,35.05163451574641,325.068525307118,7595.9082410989395,3.2579071931735664,0.03435481626696185,141.3036980547188,17462.0,0.0,4,1.0
30,35.0417333479182,325.16816281000916,7548.637392280031,3.2509186453600236,0.04696171460000174,141.26688206600676,17318.0,0.0,5,1.0
31,42.01965175900414,345.77799304836293,7941.958454092943,3.2440179726556253,0.04017655469337438,148.30106955138405,18311.0,0.0,1,2.0
32,102.86955818309089,370.9063779135224,3401.047535453294,3.2594584073621493,0.04373236034649777,63.32006880126031,8251.0,0.0,2,2.0
33,102.18195129561117,384.890379973021,3040.1109180751273,3.2987922302452564,0.012593580097105343,53.02172677026971,7023.0,0.0,3,2.0
34,66.10191290019631,412.1035591231006,3007.432250723661,3.2997662447058778,0.13878666592479388,53.96243587129025,7754.0,0.0,4,2.0
35,103.15456916985725,463.9693162075184,3022.0033006669287,3.2074043575931053,0.029191391960499725,59.830679463249915,7222.0,0.0,5,2.0
36,104.22376440917627,448.3279997929774,4141.858786391854,3.2180149576888457,0.04248338358979381,80.08719377298168,9620.0,0.0,6,2.0
37,102.910280684052,462.91882015169017,3693.8974684438986,3.22919763893515,0.05280702049330362,71.77001874829858,8611.0,0.0,7,2.0
38,90.76751524504434,412.9531865848017,3161.963415829985,3.225704948347431,0.13673603161216352,60.76330558437651,6952.0,0.0,8,2.0
39,102.03292403273305,422.75972708813055,3918.464683077046,3.2985549763460487,0.03706921094301022,68.31823248793687,10120.0,0.0,9,2.0
40,104.83352086482807,407.76632496969313,4393.715825213349,3.310184579826429,0.015988244276559996,74.12710748059331,10412.0,0.0,10,2.0
41,104.03745041071718,422.6535203692088,3372.408073488222,3.280541854397605,0.039207650931723646,58.05599208376816,9686.0,0.0,11,2.0
42,116.86971116283488,415.1857043212909,3356.3901806541685,3.291118970809814,0.06284034281273376,58.66984957594939,7729.0,0.0,13,2.0
43,168.61640517782376,421.994101945999,4135.001998184672,3.23833741210767,0.04933389860771276,75.8401000497302,10467.0,0.0,15,2.0
44,192.6299924423335,414.00974404137514,3065.603963651509,3.2926500408948463,0.054387172710193075,51.19021303586722,8864.0,0.0,16,2.0
45,171.1745009964002,433.6765251445547,3498.71105035333,3.2461539539000044,0.023593274903008353,64.71064389060406,9336.0,0.0,17,2.0
46,170.28782147065618,456.70784675234154,4056.610942686665,3.241660254254504,0.03506943827260315,74.46217488325838,10268.0,0.0,18,2.0
47,170.26852195394432,477.9720138796838,3936.551809014507,3.3088336669591136,0.11358864091377822,68.59338476113301,11621.0,0.0,19,2.0
48,176.72579615753367,480.48664560153424,3603.994912946578,3.197330722554817,0.13003609090717802,69.66439899721895,10027.0,0.0,20,2.0
49,171.9295917419482,466.75290051123693,3732.687603111157,3.228816245706706,0.03602906364124847,72.27718036874246,9497.0,0.0,21,2.0
50,172.92934487250992,472.7001743681859,3982.599086564292,3.222662659405084,0.056883828764943446,77.80413355925357,10053.0,0.0,22,2.0
51,173.22196422272623,457.8867597867748,4863.88948379453,3.294674966560399,0.008690185951402113,84.20993833594055,10797.0,0.0,23,2.0
52,172.06789193212447,450.7525498290299,4106.002962527179,3.2618123815981463,0.012375585186301738,76.87306375030968,10675.0,0.0,24,2.0
53,172.90455564999138,436.5522369588546,3193.1329074003165,3.2372384375595358,0.04281771148535625,56.7328301340026,8181.0,0.0,25,2.0
54,171.97629423810378,432.95577979918295,3617.23486589425,3.2848963339307895,0.050150331584442744,66.3081218530149,9059.0,0.0,26,2.0
55,172.2490557191901,444.7922484498412,4477.401232577944,3.265494642163926,0.01610953606840202,80.42360149960383,10562.0,0.0,27,2.0
56,172.1836318714029,455.2754015480791,3798.683351089149,3.27735666560824,0.06874551688452588,68.87244942126075,9813.0,0.0,31,2.0
57,172.05932884195465,476.5932607289011,4464.511954097676,3.251006015291492,0.06318211938984535,78.89912597620736,10677.0,0.0,32,2.0
58,169.32453002166088,477.3078487302562,3074.712154707728,3.228297365748787,0.14670823507890568,58.25471272782664,9133.0,0.0,33,2.0
59,172.137958547753,501.59977631851774,3761.7183385158824,3.2075699249043854,0.05873912617400724,71.06139948161032,10049.0,0.0,34,2.0
60,171.66257417227385,494.64892659809914,3218.94878584221,3.2220455354253814,0.12653189572246237,61.15446743396254,9067.0,0.0,35,2.0
61,171.9249086680114,493.44670003194506,3089.055791833293,3.209218527609406,0.12674724970776557,58.2840715440244,9492.0,0.0,36,2.0
62,67.04822138497532,345.9339942447363,3873.274992989089,3.292657223518961,0.12332575399163989,69.20716579064589,9400.0,0.0,1,3.0
63,103.9524798021866,356.1240842534618,4082.371475754855,3.287124388844367,0.05485077458705891,72.94471925905188,9721.0,0.0,2,3.0
64,102.88130797623327,361.72862020626206,3036.5364196411765,3.203759808098149,0.011477554944816329,60.170723638171246,7051.0,0.0,3,3.0
65,43.01545819057742,345.9877354096295,7134.724124219561,3.2078728689086047,0.029817728984623603,141.86001182658777,18109.0,0.0,4,3.0
66,43.07488248628472,345.93470845919313,6857.26065181581,3.1987409665690314,0.02014432957566778,136.83497988354378,17647.0,0.0,5,3.0
67,32.02000057253205,359.9266512197894,7226.186922643377,3.306610249672936,0.10939311790623268,127.98150196374921,16675.0,0.0,7,3.0
68,33.13912695379091,360.9594562530313,7785.085572488015,3.257271614019286,0.05567686144385441,144.80974695342064,17891.0,0.0,8,3.0
69,33.79475157200219,361.8182364399038,6715.371716143795,3.20167345452987,0.010153834069598208,131.97840366987805,14881.0,0.0,9,3.0
70,105.03313221040499,408.9131637247545,4300.658880249804,3.2917712879374528,0.0749030985009896,77.40798944502421,11715.0,0.0,11,3.0
71,116.9262541047758,349.2015420622066,3943.283354625186,3.300786640373949,0.06483605324918762,69.6802824862227,8771.0,0.0,12,3.0
72,170.1204243221341,322.7697081837797,3805.061920474868,3.325748947320898,0.04159564239837732,63.41769867458114,10010.0,0.0,13,3.0
73,236.22316542255106,290.6713111989195,3359.7205689801594,3.2084447395987397,0.08288096679008822,64.45140831482986,9462.0,0.0,14,3.0
74,304.2767691267353,302.5640897662862,3659.674951370931,3.2243953271882653,0.019287193619341968,64.292430494833,10036.0,0.0,15,3.0
75,9.878460664148701,353.91218291689813,4321.667638573862,3.123290812362339,0.06953976956622607,95.95951559207202,9186.0,0.0,1,4.0
76,35.77356261531811,326.7193297493398,6876.55947181687,3.226524508686791,0.04017746491670285,129.17294035457104,15848.0,0.0,2,4.0
77,43.022035903546424,345.92989032635614,7106.102886694125,3.212397910493874,0.02140378187923176,140.5969384020635,17436.0,0.0,3,4.0
78,26.056848406093927,355.11203253185215,4400.441935483566,3.1018733379691774,0.07135009551927134,99.58016516454593,10515.0,0.0,4,4.0
79,27.28334309047728,355.96732084983864,5159.842115932497,3.1356491304331504,0.02860255601181468,110.79755456157392,12688.0,0.0,5,4.0
80,32.74938449629734,360.8864011907409,6936.226414904564,3.285492866984821,0.1068489757353937,123.02550850668872,17381.0,0.0,6,4.0
81,38.27423369294661,391.88555184765085,4244.468871009518,3.1140665421969107,0.02108340148995559,93.35121319708766,9609.0,0.0,7,4.0
82,38.259655259539535,392.9469966786786,4285.232747100048,3.185929342059355,0.06199897042982817,86.31796681145075,8633.0,0.0,8,4.0
83,36.80689095855532,462.7348744634284,3655.6676681239633,3.3175912644127488,0.057191899122699785,60.942444094717025,8250.0,0.0,10,4.0
84,38.83442688485286,478.68635898708527,4154.873833461675,3.273393705307331,0.07459667264933188,72.89252339406447,10611.0,0.0,11,4.0
85,37.05219304705014,461.22771886097365,4176.3032466641325,3.3162887197493975,0.0735543473523685,71.9371337408372,9169.0,0.0,12,4.0
86,38.0897047403192,477.6154494803284,4727.501173923321,3.2449055093647767,0.03329972400537958,84.10475546147659,11173.0,0.0,13,4.0
87,36.233654301443366,450.83259893775727,3944.976011308188,3.2675151189037837,0.04904906960551213,71.47691727805775,9461.0,0.0,14,4.0
88,37.293294396160206,460.82610467986115,3463.364568937679,3.2738818310760225,0.019176254896352805,61.17143872323917,7564.0,0.0,15,4.0
89,38.070728483756625,479.3977770353718,3268.1865088572813,3.2216324738383286,0.08072465500171248,60.629543099218616,8686.0,0.0,16,4.0
90,60.149108919381845,479.30554311834845,3450.678407465459,3.240929641257943,0.1012461630284778,64.04352385049475,7548.0,0.0,17,4.0
91,37.790225130730846,500.9857262014795,4111.826538468743,3.3589713851288137,0.03936267092955824,65.31216186794273,10381.0,0.0,18,4.0
92,42.61668375375376,544.7677441105876,4049.2639435985284,3.2845174251449487,0.025020689250947917,66.01710739921252,10549.0,0.0,19,4.0
93,83.72602675412188,548.9155410358719,3879.5018577245246,3.328045797270716,0.018635605048440286,64.06324128889983,10792.0,0.0,20,4.0
94,142.90918111310862,552.994203387826,3541.5818380683804,3.3920956199036243,0.06473042691623945,56.35169994851107,12173.0,0.0,21,4.0
95,168.95046088174172,546.3057395051912,3370.26559311959,3.2758830175923643,0.11654654348042363,60.971508510376594,9205.0,0.0,22,4.0
96,213.30750891188632,550.2248460266009,3409.736957711629,3.2763388177195187,0.023125302522635803,60.095274176103025,9863.0,0.0,23,4.0
97,241.04125774113584,544.7262320220339,4979.738933918997,3.322383425073291,0.07754609569663949,83.08833273437727,12878.0,0.0,24,4.0
98,239.0576407509355,532.4386828379469,3786.6146410716206,3.2336491908640967,0.02806913786077814,67.596563563918,9538.0,0.0,25,4.0
99,238.88694551848334,512.7126984619242,4688.310320525464,3.2664240751169693,0.04246993095126175,83.7004161095434,12092.0,0.0,26,4.0
100,231.62033483744338,486.06230580135326,3381.081319408345,3.243980261344554,0.07462855003384213,62.14551024969387,9147.0,0.0,27,4.0
101,227.66010511432208,485.2335868577647,4487.664863842884,3.2824697724989904,0.07128795241303323,75.9677671223312,10537.0,0.0,28,4.0
102,239.79058210992147,512.8091921422905,4721.497362255512,3.300465546579195,0.008049853422325757,81.51501662721772,12258.0,0.0,29,4.0
103,238.9624565542586,520.7993941097646,3817.5916133692144,3.307227892500189,0.04593132882538944,67.23382093509112,10054.0,0.0,30,4.0
104,239.03645160954267,503.6850160224844,4286.808478055366,3.24067119187156,0.012770946859408381,79.57108234106825,10919.0,0.0,31,4.0
105,257.9434937981767,485.79131653057476,5178.86005733454,3.3500403111910035,0.067805931776558,83.48247769266754,12331.0,0.0,32,4.0
106,301.42768248047184,486.8716618180332,3606.5824180682916,3.1820243642212582,0.09387859797682382,70.09510149364506,9570.0,0.0,33,4.0
107,307.07500618438416,476.4908099685164,3805.2623450067413,3.194020060197801,0.07200135856329422,73.782899887289,9621.0,0.0,34,4.0
108,305.90151257516686,453.65509949865736,4158.503785509452,3.2284110869230327,0.0366236205608827,77.09169228038914,10664.0,0.0,35,4.0
109,306.0476781039553,454.40666775605865,3751.4958964108046,3.217522382842256,0.03069258691947106,68.27562666585715,9329.0,0.0,36,4.0
110,98.7639144115311,418.0306233758816,3144.962872137683,3.338740326414835,0.08064925487666211,51.830227292286125,7309.0,0.0,3,5.0
111,103.06219092409725,463.0668838052602,4021.0359430689273,3.220348109751503,0.028203991761254613,78.99655560539398,8699.0,0.0,4,5.0
112,168.1467512354808,409.81385180706394,4399.770891640101,3.3186173101415277,0.048763267385968236,74.7883493290624,10881.0,0.0,5,5.0
113,202.92868918247083,414.16125268620675,3546.5118158143873,3.344196238739522,0.06695946009446,58.37680991886014,8182.0,0.0,6,5.0
114,237.07691818823912,430.270895467349,3080.5900355038925,3.121102979044417,0.0279819781897011,62.23414213139177,8254.0,0.0,7,5.0
115,281.0032490761376,414.93047977246846,3723.5980814650165,3.2630353546175708,0.1204864725488591,69.28152599340126,9697.0,0.0,8,5.0
116,316.00820372251707,418.015106180145,4055.6187104202527,3.312505116680533,0.08093733279404838,70.3884819572683,9868.0,0.0,9,5.0
117,357.0750616834615,413.21647959358404,3514.73826615493,3.29206559755921,0.09377084517718463,62.11441417346158,7401.0,0.0,10,5.0
118,370.2422801286504,397.7163169990467,3368.215140726616,3.2533544000083987,0.059761641955595385,60.95879168795657,8665.0,0.0,11,5.0
119,431.74631937524794,415.79813191872506,3928.6138214701914,3.3003139824255676,0.022413803739947138,67.705537638435,9699.0,0.0,12,5.0
120,437.9535036719883,477.70514039992327,4695.28362646832,3.306275154771761,0.03442859816751669,78.33951012742375,11812.0,0.0,13,5.0
121,496.7706791229152,480.072772381648,3729.3234318282357,3.240123889235345,0.1206688998699822,69.9496327208343,9557.0,0.0,14,5.0
122,504.93143936542924,438.4627516770702,4121.893832743978,3.1944147517374706,0.012486462942401674,79.27319099848341,11020.0,0.0,15,5.0
123,545.9740217047477,415.095741845872,4317.767401670701,3.391766210854272,0.04585974293807574,65.34920813089431,9244.0,0.0,16,5.0
124,549.7208699169821,413.74281379404493,3171.4886706797083,3.220836924188662,0.11265902381436084,60.37436362989348,7193.0,0.0,17,5.0
125,569.3716512766401,413.82356327118646,4387.5889996889455,3.2730941637632744,0.08441248377526328,76.35528102435818,12201.0,0.0,18,5.0
126,611.1223355828374,416.22388152061717,4545.197335768223,3.3113761257811913,0.09082924972129884,76.64425151713455,10122.0,0.0,19,5.0
127,637.7555589342559,410.7502877348671,4511.732534051044,3.281900688490185,0.10483778370462578,78.76628027323751,10859.0,0.0,20,5.0
128,639.2128028177079,459.6881237607602,4054.872322381992,3.2358803207397915,0.03698912044317624,76.87106895150151,10223.0,0.0,21,5.0
129,676.7853324549775,482.0884477929218,3707.292152431549,3.2820680275988035,0.12358070126805144,67.3305001955079,9309.0,0.0,22,5.0
130,730.8896743232573,485.9959526215898,4856.234034854899,3.396825747607934,0.02958086328466192,74.64062716140185,10461.0,0.0,23,5.0
131,772.096517370517,497.805352712897,3546.301634540882,3.2274134795116667,0.07193893075817918,69.34931708538575,9801.0,0.0,24,5.0
132,772.8604128610427,438.6289901990965,4051.3678483636327,3.232937056934869,0.017213849789541248,74.83905251719492,10490.0,0.0,25,5.0
133,772.9189794007631,392.56751809748164,4184.658466013492,3.210646632174328,0.02188089853025388,77.54064522702289,11068.0,0.0,26,5.0
134,772.9955619945091,451.5727458557257,3887.895471789926,3.266207944981615,0.049773526468745895,64.77779094659464,10315.0,0.0,30,5.0
135,756.8544075033141,419.39099684167917,3213.267531008433,3.223702664645848,0.06798948942026808,60.84847473140513,9018.0,0.0,31,5.0
136,707.3277350581614,363.8496958824421,3895.724892111395,3.2273890900684408,0.04540757557509722,72.64409464882823,10887.0,0.0,35,5.0
137,772.8287441731059,401.79459881221953,4660.9851122927885,3.2513749533433636,0.024870437740288402,87.48996714277962,12033.0,0.0,37,5.0
138,706.122739345276,378.57070879292957,3370.5903557785973,3.157259838694682,0.07677282691429134,68.2668668621279,8608.0,0.0,38,5.0
139,753.6328146315706,354.87393014658244,3364.599359519101,3.2277932993113287,0.06505552127946594,62.95365895378428,8692.0,0.0,39,5.0
140,772.9773527261051,323.5707995097404,3107.8493718794557,3.14486537883372,0.08439750797560348,63.57725117734022,8261.0,0.0,40,5.0
141,754.2529246137993,290.03058454565496,4876.551125839975,3.322624552551509,0.03568232949424888,80.67474614565938,11087.0,0.0,42,5.0
142,773.0714604368026,236.66944508756066,4361.034343556819,3.214672706657306,0.029248705621511367,83.43027440436995,11288.0,0.0,44,5.0
143,775.2650648564461,277.97647676855195,4297.069936503281,3.343828375153931,0.06935025286446288,70.08657971310176,10868.0,0.0,45,5.0
144,803.2540958938708,282.25499666365636,3967.7471883636354,3.300590935180198,0.07852960665628278,68.95861206292837,8900.0,0.0,46,5.0
145,839.8473957157709,284.1581941834959,3909.0267041406623,3.2617366050384167,0.030319375342068217,71.3347036517207,8696.0,0.0,47,5.0
146,857.8067551733657,317.8393461140884,4088.5550170667643,3.361605067620002,0.014780551206041999,63.55751150511468,9113.0,0.0,49,5.0
147,858.751397107486,320.7815022539695,4369.766657122817,3.3396850981428425,0.020477380649935352,69.18850593303976,9782.0,0.0,50,5.0
148,861.6856120592006,307.7938250985,3259.0008498474454,3.27338604197172,0.06266691700681186,57.12405984002263,7912.0,0.0,51,5.0
149,883.2188064493035,291.74431781076674,3483.0639978172876,3.316277952324242,0.12878701463177003,60.89833068788853,10893.0,0.0,54,5.0
